# qdac_multiple_set	qdac_ch19_curr_ucal	qdac_ch22_curr_ucal	timer
# "Voltage"	"ch19"	"ch22"	"Elapsed time"
# 1001
-10	-9.40036e-09	6.85432e-09	0.143602399853989
-9.98	-9.37393e-09	6.83222e-09	0.255667499965057
-9.96	-9.34475e-09	6.79867e-09	0.367623999947682
-9.94	-9.31888e-09	6.77496e-09	0.479729499900714
-9.92	-9.29709e-09	6.74569e-09	0.591792299877852
-9.9	-9.26676e-09	6.71352e-09	0.703613399993628
-9.88	-9.24442e-09	6.68916e-09	0.815640799934044
-9.86	-9.21484e-09	6.66768e-09	0.927572899963707
-9.84	-9.18639e-09	6.64074e-09	1.03948689997196
-9.82	-9.16278e-09	6.61358e-09	1.15155999991111
-9.8	-9.1493e-09	6.5829e-09	1.26351509988308
-9.78	-9.11078e-09	6.55854e-09	1.37577420007437
-9.76	-9.08505e-09	6.53124e-09	1.48754039988853
-9.74	-9.05671e-09	6.51006e-09	1.59960979991592
-9.72	-9.02987e-09	6.4774e-09	1.7117401000578
-9.7	-9.00447e-09	6.45539e-09	1.82364979991689
-9.68	-8.975e-09	6.42525e-09	1.93561120005324
-9.66	-8.95509e-09	6.40503e-09	2.04751489986666
-9.64	-8.92477e-09	6.37802e-09	2.15959779988043
-9.62	-8.90542e-09	6.34739e-09	2.27154730004258
-9.6	-8.87902e-09	6.31558e-09	2.38345890003256
-9.58	-8.85602e-09	6.28965e-09	2.49562369985506
-9.56	-8.82623e-09	6.26474e-09	2.60751749994233
-9.54	-8.80568e-09	6.24212e-09	2.71941819996573
-9.52	-8.77281e-09	6.21527e-09	2.831434099935
-9.5	-8.75168e-09	6.19521e-09	2.94354879995808
-9.48	-8.73207e-09	6.1697e-09	3.05545999994501
-9.46	-8.7037e-09	6.15278e-09	3.1673975000158
-9.44	-8.6789e-09	6.12256e-09	3.27951549994759
-9.42	-8.65005e-09	6.08942e-09	3.39152819989249
-9.4	-8.63423e-09	6.06512e-09	3.50339329987764
-9.38	-8.60039e-09	6.04597e-09	3.61544359987602
-9.36	-8.57869e-09	6.02327e-09	3.72727699996904
-9.34	-8.55351e-09	5.99406e-09	3.83939259988256
-9.32	-8.52277e-09	5.97106e-09	3.95133899990469
-9.3	-8.50521e-09	5.95448e-09	4.06334259989671
-9.28	-8.47959e-09	5.92269e-09	4.17540899990126
-9.26	-8.45557e-09	5.89618e-09	4.28738899994642
-9.24	-8.42623e-09	5.8684e-09	4.39931820007041
-9.22	-8.40408e-09	5.85385e-09	4.51147009991109
-9.2	-8.38268e-09	5.83005e-09	4.62329689995386
-9.18	-8.35536e-09	5.80489e-09	4.73536910000257
-9.16	-8.33237e-09	5.79133e-09	4.84754640003666
-9.14	-8.31726e-09	5.761e-09	4.95934419985861
-9.12	-8.28731e-09	5.73315e-09	5.07136809988879
-9.1	-8.26651e-09	5.71404e-09	5.18337449990213
-9.08	-8.23807e-09	5.69095e-09	5.29532749997452
-9.06	-8.22073e-09	5.66513e-09	5.4072809999343
-9.04	-8.19432e-09	5.64553e-09	5.51927360007539
-9.02	-8.17272e-09	5.61973e-09	5.63118469994515
-9	-8.15246e-09	5.59394e-09	5.74319679988548
-8.98	-8.11988e-09	5.56962e-09	5.8553130000364
-8.96	-8.10179e-09	5.55275e-09	5.96724519995041
-8.94	-8.07844e-09	5.52466e-09	6.07924850005656
-8.92	-8.05966e-09	5.49793e-09	6.1913135999348
-8.9	-8.04122e-09	5.4821e-09	6.30322879995219
-8.88	-8.0187e-09	5.46213e-09	6.41517150006257
-8.86	-7.9888e-09	5.43597e-09	6.52728709997609
-8.84	-7.96683e-09	5.41474e-09	6.63909820001572
-8.82	-7.94846e-09	5.38942e-09	6.75115079991519
-8.8	-7.92834e-09	5.37158e-09	6.86318270000629
-8.78	-7.89997e-09	5.35032e-09	6.97514549992047
-8.76	-7.87851e-09	5.31977e-09	7.08713670005091
-8.74	-7.85845e-09	5.3004e-09	7.19907189998776
-8.72	-7.8394e-09	5.27887e-09	7.31127050006762
-8.7	-7.81522e-09	5.25756e-09	7.42315479996614
-8.68	-7.79416e-09	5.23571e-09	7.53519829991274
-8.66	-7.77332e-09	5.21533e-09	7.64706499991007
-8.64	-7.75155e-09	5.18752e-09	7.75912759988569
-8.62	-7.73399e-09	5.16856e-09	7.87107279989868
-8.6	-7.71077e-09	5.1521e-09	7.98320530005731
-8.58	-7.68568e-09	5.12919e-09	8.09500480000861
-8.56	-7.66888e-09	5.10355e-09	8.20697449985892
-8.54	-7.64273e-09	5.0803e-09	8.31904869992286
-8.52	-7.62639e-09	5.06052e-09	8.43104230007157
-8.5	-7.61155e-09	5.04402e-09	8.54306189995259
-8.48	-7.58006e-09	5.03058e-09	8.65516559989192
-8.46	-7.5623e-09	5.00384e-09	8.7671705998946
-8.44	-7.53979e-09	4.97802e-09	8.87898380006664
-8.42	-7.52074e-09	4.95709e-09	8.99143729987554
-8.4	-7.50429e-09	4.92607e-09	9.10298329987563
-8.38	-7.47483e-09	4.91419e-09	9.21498559997417
-8.36	-7.45772e-09	4.89293e-09	9.32690380001441
-8.34	-7.43801e-09	4.86633e-09	9.43906820006669
-8.32	-7.42017e-09	4.84807e-09	9.55110120004974
-8.3	-7.39394e-09	4.83432e-09	9.6629329000134
-8.28	-7.37395e-09	4.81475e-09	9.77501889993437
-8.26	-7.35321e-09	4.79096e-09	9.88695760001428
-8.24	-7.33346e-09	4.77009e-09	9.99903690000065
-8.22	-7.31801e-09	4.75094e-09	10.1110622000415
-8.2	-7.29745e-09	4.72794e-09	10.2228941000067
-8.18	-7.27562e-09	4.70858e-09	10.3349446000066
-8.16	-7.25217e-09	4.68931e-09	10.4469306999817
-8.14	-7.23936e-09	4.67214e-09	10.5588368000463
-8.12	-7.21855e-09	4.65339e-09	10.6707758000121
-8.1	-7.19514e-09	4.62951e-09	10.7828279000241
-8.08	-7.17776e-09	4.60768e-09	10.8949591000564
-8.06	-7.16278e-09	4.58584e-09	11.0068896000739
-8.04	-7.13482e-09	4.56617e-09	11.1188199999742
-8.02	-7.11309e-09	4.5523e-09	11.2307774000801
-8	-7.09899e-09	4.5272e-09	11.3427363999654
-7.98	-7.07635e-09	4.5134e-09	11.4547730998602
-7.96	-7.0555e-09	4.49895e-09	11.5667810998857
-7.94	-7.03366e-09	4.47722e-09	11.6787765999325
-7.92	-7.0156e-09	4.45477e-09	11.7907346000429
-7.9	-7.00174e-09	4.43861e-09	11.9028014999349
-7.88	-6.98062e-09	4.41931e-09	12.014810099965
-7.86	-6.962e-09	4.39204e-09	12.1268436000682
-7.84	-6.94234e-09	4.37668e-09	12.2388750999235
-7.82	-6.92153e-09	4.35794e-09	12.3508119999897
-7.8	-6.90537e-09	4.33667e-09	12.4627469000407
-7.78	-6.88958e-09	4.31812e-09	12.5746247000061
-7.76	-6.86802e-09	4.30053e-09	12.6866277998779
-7.74	-6.84412e-09	4.27851e-09	12.7987166999374
-7.72	-6.82806e-09	4.26069e-09	12.9106238000095
-7.7	-6.8077e-09	4.23834e-09	13.0226550998632
-7.68	-6.79336e-09	4.2252e-09	13.134603299899
-7.66	-6.76968e-09	4.20364e-09	13.2468435000628
-7.64	-6.75065e-09	4.18938e-09	13.3587288998533
-7.62	-6.73795e-09	4.16928e-09	13.4706445999909
-7.6	-6.71513e-09	4.15635e-09	13.5827307000291
-7.58	-6.70195e-09	4.13708e-09	13.6947260000743
-7.56	-6.68531e-09	4.11985e-09	13.8065939999651
-7.54	-6.66199e-09	4.09733e-09	13.9187209999654
-7.52	-6.64761e-09	4.07943e-09	14.030730899889
-7.5	-6.62502e-09	4.06469e-09	14.1427773998585
-7.48	-6.61248e-09	4.04221e-09	14.2546021000016
-7.46	-6.58769e-09	4.03153e-09	14.3667001998983
-7.44	-6.57467e-09	4.00681e-09	14.478511299938
-7.42	-6.55054e-09	3.98738e-09	14.5905263000168
-7.4	-6.53525e-09	3.96903e-09	14.7026487998664
-7.38	-6.51982e-09	3.9511e-09	14.8146716000047
-7.36	-6.5031e-09	3.93155e-09	14.9265550998971
-7.34	-6.48556e-09	3.91715e-09	15.0385127000045
-7.32	-6.46315e-09	3.89385e-09	15.1504412000068
-7.3	-6.44498e-09	3.87934e-09	15.2624059999362
-7.28	-6.42428e-09	3.86e-09	15.374487800058
-7.26	-6.4149e-09	3.84508e-09	15.4864560000133
-7.24	-6.39438e-09	3.82561e-09	15.5984094999731
-7.22	-6.37892e-09	3.80966e-09	15.71055050008
-7.2	-6.36026e-09	3.78872e-09	15.8224708000198
-7.18	-6.34511e-09	3.77238e-09	15.9344415999949
-7.16	-6.32658e-09	3.75125e-09	16.0464335998986
-7.14	-6.30685e-09	3.73382e-09	16.158467900008
-7.12	-6.28885e-09	3.71415e-09	16.2704533999786
-7.1	-6.27003e-09	3.70012e-09	16.3824106000829
-7.08	-6.25053e-09	3.68608e-09	16.4943999999668
-7.06	-6.23397e-09	3.66851e-09	16.6064082998782
-7.04	-6.2224e-09	3.6519e-09	16.7184132998809
-7.02	-6.20462e-09	3.62925e-09	16.8303540998604
-7	-6.18678e-09	3.61094e-09	16.9424844000023
-6.98	-6.16903e-09	3.60026e-09	17.0544771000277
-6.96	-6.15676e-09	3.58371e-09	17.1662914999761
-6.94	-6.13489e-09	3.5606e-09	17.2783210999332
-6.92	-6.1186e-09	3.54995e-09	17.3905436000787
-6.9	-6.09914e-09	3.53158e-09	17.5022946998943
-6.88	-6.08502e-09	3.50846e-09	17.6143662999384
-6.86	-6.06529e-09	3.49454e-09	17.7263402999379
-6.84	-6.0516e-09	3.48161e-09	17.8383249999024
-6.82	-6.03146e-09	3.46304e-09	17.9504905999638
-6.8	-6.00816e-09	3.4524e-09	18.0622737999074
-6.78	-5.99234e-09	3.43381e-09	18.1742177000269
-6.76	-5.98632e-09	3.41441e-09	18.2863711998798
-6.74	-5.96224e-09	3.40021e-09	18.3982388998847
-6.72	-5.95348e-09	3.37826e-09	18.5103622998577
-6.7	-5.93613e-09	3.36364e-09	18.6223420999013
-6.68	-5.91445e-09	3.34796e-09	18.7342496998608
-6.66	-5.89914e-09	3.33337e-09	18.8461948998738
-6.64	-5.88208e-09	3.31793e-09	18.958217300009
-6.62	-5.86765e-09	3.30193e-09	19.0701838999521
-6.6	-5.85136e-09	3.27566e-09	19.182170300046
-6.58	-5.83303e-09	3.26509e-09	19.2942689000629
-6.56	-5.81648e-09	3.24217e-09	19.406181700062
-6.54	-5.79821e-09	3.22915e-09	19.5181426999625
-6.52	-5.7829e-09	3.20979e-09	19.6300683000591
-6.5	-5.76821e-09	3.19317e-09	19.7421198999509
-6.48	-5.7458e-09	3.1871e-09	19.8542814999819
-6.46	-5.72874e-09	3.16168e-09	19.9662057000678
-6.44	-5.71803e-09	3.14885e-09	20.0783826999832
-6.42	-5.70325e-09	3.13389e-09	20.1901753998827
-6.4	-5.68319e-09	3.11804e-09	20.3019908000715
-6.38	-5.66301e-09	3.10488e-09	20.4140462998766
-6.36	-5.6495e-09	3.08474e-09	20.5261705999728
-6.34	-5.63659e-09	3.07009e-09	20.6381258999463
-6.32	-5.62022e-09	3.05611e-09	20.7501318999566
-6.3	-5.59905e-09	3.04137e-09	20.8620664998889
-6.28	-5.58101e-09	3.02508e-09	20.9740007999353
-6.26	-5.56456e-09	3.0053e-09	21.0860069000628
-6.24	-5.55556e-09	2.99749e-09	21.1980175999925
-6.22	-5.53681e-09	2.97837e-09	21.3100117000286
-6.2	-5.52699e-09	2.9601e-09	21.4220149999019
-6.18	-5.50892e-09	2.94051e-09	21.534012600081
-6.16	-5.48637e-09	2.92909e-09	21.6460076000076
-6.14	-5.47146e-09	2.91732e-09	21.7581213999074
-6.12	-5.46097e-09	2.90078e-09	21.8700753999874
-6.1	-5.44332e-09	2.88648e-09	21.9820163000841
-6.08	-5.43089e-09	2.86757e-09	22.0939720999449
-6.06	-5.4115e-09	2.8508e-09	22.2060857999604
-6.04	-5.39623e-09	2.8346e-09	22.3183116000146
-6.02	-5.37734e-09	2.82375e-09	22.4300802000798
-6	-5.36767e-09	2.81064e-09	22.5418777000159
-5.98	-5.3452e-09	2.7862e-09	22.6541221998632
-5.96	-5.32753e-09	2.77453e-09	22.7658756000455
-5.94	-5.31196e-09	2.76054e-09	22.8778852999676
-5.92	-5.29732e-09	2.74754e-09	22.989874899853
-5.9	-5.28003e-09	2.73022e-09	23.1018556999043
-5.88	-5.27133e-09	2.71558e-09	23.2139069000259
-5.86	-5.25453e-09	2.70394e-09	23.325848700013
-5.84	-5.24495e-09	2.69005e-09	23.4378122999333
-5.82	-5.22203e-09	2.67553e-09	23.5498885000125
-5.8	-5.21429e-09	2.66193e-09	23.6618619000074
-5.78	-5.19872e-09	2.64475e-09	23.7739067999646
-5.76	-5.17944e-09	2.63441e-09	23.8859305998776
-5.74	-5.16123e-09	2.61694e-09	23.9978157000151
-5.72	-5.14743e-09	2.59961e-09	24.1097385999747
-5.7	-5.13527e-09	2.5862e-09	24.2218869999051
-5.68	-5.11807e-09	2.5726e-09	24.3338222999591
-5.66	-5.10688e-09	2.5591e-09	24.4457306000404
-5.64	-5.08906e-09	2.54414e-09	24.5578038999811
-5.62	-5.07845e-09	2.52056e-09	24.6697704999242
-5.6	-5.05824e-09	2.51067e-09	24.7816776998807
-5.58	-5.05308e-09	2.49374e-09	24.8936977998819
-5.56	-5.03274e-09	2.47912e-09	25.0057230999228
-5.54	-5.01338e-09	2.46267e-09	25.117780999979
-5.52	-5.00296e-09	2.45231e-09	25.229702899931
-5.5	-4.9912e-09	2.43377e-09	25.3417817999143
-5.48	-4.97597e-09	2.42086e-09	25.4538086999673
-5.46	-4.95919e-09	2.40494e-09	25.5656238000374
-5.44	-4.9374e-09	2.38671e-09	25.6776502998546
-5.42	-4.92505e-09	2.38161e-09	25.7897735000588
-5.4	-4.90979e-09	2.35939e-09	25.9016779998783
-5.38	-4.89608e-09	2.34857e-09	26.0137821000535
-5.36	-4.88586e-09	2.33211e-09	26.1255965998862
-5.34	-4.87086e-09	2.32528e-09	26.2377110000234
-5.32	-4.85274e-09	2.30932e-09	26.3496775999665
-5.3	-4.84154e-09	2.29459e-09	26.4617296999786
-5.28	-4.82482e-09	2.2815e-09	26.5736213000491
-5.26	-4.81207e-09	2.26683e-09	26.6856811000034
-5.24	-4.79456e-09	2.24455e-09	26.7975683999248
-5.22	-4.78113e-09	2.23139e-09	26.9096677999478
-5.2	-4.7646e-09	2.21794e-09	27.0215453000274
-5.18	-4.74944e-09	2.1993e-09	27.133512499975
-5.16	-4.73857e-09	2.18752e-09	27.2458051999565
-5.14	-4.72399e-09	2.17763e-09	27.357484200038
-5.12	-4.70916e-09	2.16138e-09	27.4695508000441
-5.1	-4.69219e-09	2.15682e-09	27.5816341999453
-5.08	-4.6781e-09	2.13993e-09	27.6936186000239
-5.06	-4.66885e-09	2.13164e-09	27.8055549999699
-5.04	-4.65379e-09	2.1139e-09	27.9175789998844
-5.02	-4.63969e-09	2.09388e-09	28.0295828999951
-5	-4.62782e-09	2.07865e-09	28.1415118000004
-4.98	-4.61103e-09	2.07452e-09	28.253480500076
-4.96	-4.59908e-09	2.0544e-09	28.3654847999569
-4.94	-4.58445e-09	2.03792e-09	28.4775699998718
-4.92	-4.56976e-09	2.03064e-09	28.5895420999732
-4.9	-4.55668e-09	2.01669e-09	28.7014136998914
-4.88	-4.54258e-09	1.99758e-09	28.8136473998893
-4.86	-4.5239e-09	1.98364e-09	28.9254683000036
-4.84	-4.51259e-09	1.97856e-09	29.0373944998719
-4.82	-4.4934e-09	1.96083e-09	29.1496130998712
-4.8	-4.48752e-09	1.94788e-09	29.2614275000524
-4.78	-4.46496e-09	1.93711e-09	29.3733184000012
-4.76	-4.4556e-09	1.92322e-09	29.485432599904
-4.74	-4.44038e-09	1.91403e-09	29.5973674000707
-4.72	-4.43038e-09	1.90015e-09	29.7094682999887
-4.7	-4.41638e-09	1.8808e-09	29.8215141999535
-4.68	-4.39956e-09	1.86829e-09	29.9332379999105
-4.66	-4.38692e-09	1.85647e-09	30.0453448998742
-4.64	-4.37411e-09	1.84058e-09	30.1575147998519
-4.62	-4.36341e-09	1.8342e-09	30.2693900999147
-4.6	-4.34934e-09	1.80946e-09	30.3813557999674
-4.58	-4.33319e-09	1.7989e-09	30.4933941999916
-4.56	-4.31723e-09	1.79055e-09	30.6053106000181
-4.54	-4.30717e-09	1.77962e-09	30.7172683998942
-4.52	-4.2938e-09	1.75923e-09	30.8292207000777
-4.5	-4.28159e-09	1.74701e-09	30.9412978000473
-4.48	-4.26826e-09	1.73454e-09	31.0532801998779
-4.46	-4.24943e-09	1.71911e-09	31.1651665999088
-4.44	-4.23592e-09	1.70703e-09	31.2771713000257
-4.42	-4.22364e-09	1.69967e-09	31.3893210999668
-4.4	-4.21226e-09	1.68643e-09	31.5012498998549
-4.38	-4.19403e-09	1.67025e-09	31.6135348000098
-4.36	-4.17947e-09	1.65316e-09	31.725438500056
-4.34	-4.16957e-09	1.64562e-09	31.836994699901
-4.32	-4.15816e-09	1.63673e-09	31.9491886000615
-4.3	-4.1445e-09	1.61851e-09	32.0611376999877
-4.28	-4.13136e-09	1.60518e-09	32.1730402000248
-4.26	-4.11434e-09	1.5941e-09	32.285200299928
-4.24	-4.10333e-09	1.57511e-09	32.3971233998891
-4.22	-4.09322e-09	1.56306e-09	32.5090971000027
-4.2	-4.07344e-09	1.55518e-09	32.6212708000094
-4.18	-4.07086e-09	1.54174e-09	32.7332015999127
-4.16	-4.05607e-09	1.52802e-09	32.8450702999253
-4.14	-4.03352e-09	1.51342e-09	32.9571859000716
-4.12	-4.02622e-09	1.50623e-09	33.0693701000419
-4.1	-4.00446e-09	1.49356e-09	33.1811609999277
-4.08	-3.9943e-09	1.47959e-09	33.2930983998813
-4.06	-3.98221e-09	1.46231e-09	33.4051405999344
-4.04	-3.97063e-09	1.45839e-09	33.5172629000153
-4.02	-3.95669e-09	1.43979e-09	33.6291242998559
-4	-3.93994e-09	1.42972e-09	33.7411821000278
-3.98	-3.92904e-09	1.41763e-09	33.8530613998882
-3.96	-3.92216e-09	1.40581e-09	33.9651337999385
-3.94	-3.90037e-09	1.39422e-09	34.0772202999797
-3.92	-3.886e-09	1.38057e-09	34.1889325000811
-3.9	-3.8758e-09	1.36529e-09	34.3009112
-3.88	-3.86983e-09	1.35982e-09	34.4129734998569
-3.86	-3.84982e-09	1.34193e-09	34.5251155998558
-3.84	-3.84204e-09	1.32695e-09	34.6368942998815
-3.82	-3.82328e-09	1.3242e-09	34.7492646998726
-3.8	-3.81272e-09	1.30814e-09	34.8609205000103
-3.78	-3.80026e-09	1.29159e-09	34.9730618000031
-3.76	-3.78781e-09	1.28196e-09	35.084948200034
-3.74	-3.77425e-09	1.26602e-09	35.1968838998582
-3.72	-3.75905e-09	1.24849e-09	35.3089864000212
-3.7	-3.75044e-09	1.24233e-09	35.4209141000174
-3.68	-3.73597e-09	1.23011e-09	35.5328955999576
-3.66	-3.72489e-09	1.23021e-09	35.6448460000101
-3.64	-3.71184e-09	1.21039e-09	35.7568800000008
-3.62	-3.70649e-09	1.19802e-09	35.868851199979
-3.6	-3.68938e-09	1.18812e-09	35.980955200037
-3.58	-3.6769e-09	1.17075e-09	36.0928509000223
-3.56	-3.66814e-09	1.16391e-09	36.2048080998939
-3.54	-3.65267e-09	1.14383e-09	36.3168711999897
-3.52	-3.6369e-09	1.13423e-09	36.4289623999503
-3.5	-3.62276e-09	1.12571e-09	36.5407829000615
-3.48	-3.60576e-09	1.12063e-09	36.6528894000221
-3.46	-3.59475e-09	1.10201e-09	36.7648779000156
-3.44	-3.58825e-09	1.08252e-09	36.8768829999026
-3.42	-3.57736e-09	1.07316e-09	36.9889442999847
-3.4	-3.56355e-09	1.05999e-09	37.1007767999545
-3.38	-3.54828e-09	1.05352e-09	37.2128045998979
-3.36	-3.537e-09	1.04238e-09	37.3249282999896
-3.34	-3.52219e-09	1.0279e-09	37.4368608999066
-3.32	-3.51192e-09	1.01565e-09	37.5487289000303
-3.3	-3.49639e-09	9.93893e-10	37.6608965999912
-3.28	-3.48573e-09	9.90895e-10	37.7727328999899
-3.26	-3.46847e-09	9.85149e-10	37.8849092000164
-3.24	-3.45893e-09	9.67793e-10	37.9967304999009
-3.22	-3.44992e-09	9.56381e-10	38.1087013999932
-3.2	-3.43965e-09	9.46144e-10	38.2207807998639
-3.18	-3.42515e-09	9.35e-10	38.332659299951
-3.16	-3.4149e-09	9.20629e-10	38.4447256999556
-3.14	-3.398e-09	9.13595e-10	38.5568065999541
-3.12	-3.38841e-09	8.99447e-10	38.6686537000351
-3.1	-3.37642e-09	8.87456e-10	38.7807024999056
-3.08	-3.36225e-09	8.76154e-10	38.8926414998714
-3.06	-3.34904e-09	8.62899e-10	39.0047073999885
-3.04	-3.33991e-09	8.48562e-10	39.1167130998801
-3.02	-3.32665e-09	8.39882e-10	39.2286100999918
-3	-3.31636e-09	8.34968e-10	39.3405134999193
-2.98	-3.29588e-09	8.21582e-10	39.4526595999487
-2.96	-3.28391e-09	8.05487e-10	39.564664100064
-2.94	-3.2743e-09	7.96557e-10	39.6765560000204
-2.92	-3.26224e-09	7.87933e-10	39.7886188998818
-2.9	-3.24641e-09	7.76675e-10	39.9005597999785
-2.88	-3.23474e-09	7.56803e-10	40.0125301000662
-2.86	-3.22396e-09	7.44363e-10	40.1245405999944
-2.84	-3.21395e-09	7.3768e-10	40.236579899909
-2.82	-3.19443e-09	7.28431e-10	40.3485477999784
-2.8	-3.18957e-09	7.19463e-10	40.4605069998652
-2.78	-3.18045e-09	7.06072e-10	40.5726576999296
-2.76	-3.16179e-09	6.97302e-10	40.6845543000381
-2.74	-3.14869e-09	6.83541e-10	40.7964568000752
-2.72	-3.14102e-09	6.75228e-10	40.9084348999895
-2.7	-3.12628e-09	6.61524e-10	41.0204912000336
-2.68	-3.11505e-09	6.50672e-10	41.1324173000176
-2.66	-3.10307e-09	6.36743e-10	41.2444994999096
-2.64	-3.08944e-09	6.21124e-10	41.3565752999857
-2.62	-3.07895e-09	6.11462e-10	41.4684675000608
-2.6	-3.07201e-09	6.04861e-10	41.5803789999336
-2.58	-3.05272e-09	5.97311e-10	41.6925514000468
-2.56	-3.0461e-09	5.8334e-10	41.8045026999898
-2.54	-3.03862e-09	5.71193e-10	41.9163875000086
-2.52	-3.01986e-09	5.52104e-10	42.0283716998529
-2.5	-3.00846e-09	5.41603e-10	42.1404224999715
-2.48	-2.99505e-09	5.39917e-10	42.2524733999744
-2.46	-2.98804e-09	5.22946e-10	42.3644421999343
-2.44	-2.96986e-09	5.12418e-10	42.4764870000072
-2.42	-2.95857e-09	5.03207e-10	42.5883983999956
-2.4	-2.94755e-09	4.94771e-10	42.7003456000239
-2.38	-2.93975e-09	4.83141e-10	42.8123991000466
-2.36	-2.93157e-09	4.71674e-10	42.9243562999181
-2.34	-2.91864e-09	4.57196e-10	43.0362531999126
-2.32	-2.90349e-09	4.50115e-10	43.1483372000512
-2.3	-2.89408e-09	4.35092e-10	43.2602961999364
-2.28	-2.88542e-09	4.26877e-10	43.3722780998796
-2.26	-2.87375e-09	4.10719e-10	43.4843041000422
-2.24	-2.85301e-09	4.01264e-10	43.5962409998756
-2.22	-2.84692e-09	3.93372e-10	43.7082447998691
-2.2	-2.83137e-09	3.83563e-10	43.8202376000118
-2.18	-2.82199e-09	3.6311e-10	43.9322502999566
-2.16	-2.81711e-09	3.60698e-10	44.0441763000563
-2.14	-2.7956e-09	3.45714e-10	44.1564136000816
-2.12	-2.79364e-09	3.378e-10	44.2683043999132
-2.1	-2.77069e-09	3.2623e-10	44.3801925999578
-2.08	-2.75965e-09	3.13753e-10	44.4921965000685
-2.06	-2.74862e-09	3.09335e-10	44.6042506999802
-2.04	-2.74059e-09	2.96443e-10	44.7162408998702
-2.02	-2.72996e-09	2.82738e-10	44.8281497000717
-2	-2.72033e-09	2.7465e-10	44.940206799889
-1.98	-2.70588e-09	2.6296e-10	45.0521835000254
-1.96	-2.69617e-09	2.52157e-10	45.1641891000327
-1.94	-2.67858e-09	2.40501e-10	45.276067599887
-1.92	-2.66675e-09	2.35651e-10	45.388252899982
-1.9	-2.6576e-09	2.24517e-10	45.5001570999157
-1.88	-2.64581e-09	2.13726e-10	45.6121455000248
-1.86	-2.63456e-09	1.98899e-10	45.7242566999048
-1.84	-2.62746e-09	1.93358e-10	45.8360911000054
-1.82	-2.61066e-09	1.79673e-10	45.9481122998986
-1.8	-2.60193e-09	1.70588e-10	46.0602480000816
-1.78	-2.5913e-09	1.57859e-10	46.1722687999718
-1.76	-2.58462e-09	1.49001e-10	46.2842790000141
-1.74	-2.56476e-09	1.40641e-10	46.3961473999079
-1.72	-2.5559e-09	1.30533e-10	46.5079937998671
-1.7	-2.54636e-09	1.19816e-10	46.6200786000118
-1.68	-2.54142e-09	1.07147e-10	46.7320904999506
-1.66	-2.51877e-09	9.49839e-11	46.8439539999235
-1.64	-2.51278e-09	8.69998e-11	46.9560205999296
